Time,Voltage
0,0.10000661
8.33E-06,0.082361883
1.67E-05,0.078477525
2.50E-05,0.088309477
3.33E-05,0.110675626
4.17E-05,0.142211308
5.00E-05,0.177462297
5.83E-05,0.210304511
6.67E-05,0.235493437
7.50E-05,0.248500425
8.33E-05,0.247220704
9.17E-05,0.232263737
0.0001,0.205823223
0.000108333,0.172861559
0.000116667,0.139215744
0.000125,0.110806009
0.000133333,0.092327287
0.000141667,0.087396498
0.00015,0.096791816
0.000158333,0.118513323
0.000166667,0.149529111
0.000175,0.184496836
0.000183333,0.217175278
0.000191667,0.242091449
0.0002,0.254927704
0.000208333,0.253447066
0.000216667,0.23791404
0.000225,0.211336454
0.000233333,0.178177632
0.000241667,0.14413135
0.00025,0.115353815
0.000258333,0.097082718
0.000266667,0.091881231
0.000275,0.100907055
0.000283333,0.122703626
0.000291667,0.153525839
0.0003,0.188300689
0.000308333,0.221055276
0.000316667,0.245974839
0.000325,0.258682197
0.000333333,0.257050973
0.000341667,0.241544643
0.00035,0.214784752
0.000358333,0.181499129
0.000366667,0.147308936
0.000375,0.118520566
0.000383333,0.100205438
0.000391667,0.095142959
0.0004,0.104078166
0.000408333,0.125789743
0.000416667,0.156416665
0.000425,0.190765202
0.000433333,0.223595005
0.000441667,0.248591182
0.00045,0.26127894
0.000458333,0.25980342
0.000466667,0.244401474
0.000475,0.217205216
0.000483333,0.183607962
0.000491667,0.14967324
0.0005,0.121093534
0.000508333,0.102744878
0.000516667,0.097484233
0.000525,0.106231716
0.000533333,0.128018541
0.000541667,0.158667435
0.00055,0.192935803
0.000558333,0.225660391
0.000566667,0.250726268
0.000575,0.263263991
0.000583333,0.261657954
0.000591667,0.246230869
0.0006,0.219124392
0.000608333,0.185621918
0.000616667,0.151648095
0.000625,0.122981077
0.000633333,0.104430669
0.000641667,0.099402716
0.00065,0.108178384
0.000658333,0.129762811
0.000666667,0.160664728
0.000675,0.194882638
0.000683333,0.227263962
0.000691667,0.252204227
0.0007,0.265055821
0.000708333,0.263426477
0.000716667,0.247862241
0.000725,0.220657177
0.000733333,0.187088124
0.000741667,0.153299003
0.00075,0.12459435
0.000758333,0.106130883
0.000766667,0.100875907
0.000775,0.109775309
0.000783333,0.131318133
0.000791667,0.161992489
0.0008,0.196413689
0.000808333,0.228842596
0.000816667,0.253742069
0.000825,0.266359817
0.000833333,0.264899963
0.000841667,0.249207188
0.00085,0.222075994
0.000858333,0.188511829
0.000866667,0.154654302
0.000875,0.125993391
0.000883333,0.107347721
0.000891667,0.102189973
0.0009,0.111179939
0.000908333,0.132587954
0.000916667,0.163350195
0.000925,0.197720606
0.000933333,0.230310478
0.000941667,0.254990908
0.00095,0.267716858
0.000958333,0.266000855
0.000966667,0.250518091
0.000975,0.223334565
0.000983333,0.189886842
0.000991667,0.155939392
0.001,0.127078202
0.001008333,0.108565419
0.001016667,0.103144751
0.001025,0.112128877
0.001033333,0.133831152
0.001041667,0.164639458
0.00105,0.198965253
0.001058333,0.231295989
0.001066667,0.256156899
0.001075,0.268981205
0.001083333,0.267353941
0.001091667,0.251599438
0.0011,0.22440724
0.001108333,0.191019569
0.001116667,0.157035304
0.001125,0.128137581
0.001133333,0.109578403
0.001141667,0.104172777
0.00115,0.1129993
0.001158333,0.134589132
0.001166667,0.165409017
0.001175,0.199902208
0.001183333,0.232324091
0.001191667,0.257042056
0.0012,0.269841616
0.001208333,0.26824252
0.001216667,0.252385625
0.001225,0.225261212
0.001233333,0.191887575
0.001241667,0.157953528
0.00125,0.128907071
0.001258333,0.110329698
0.001266667,0.105034816
0.001275,0.114063893
0.001283333,0.135569907
0.001291667,0.166417996
0.0013,0.200866659
0.001308333,0.23346821
0.001316667,0.258165352
0.001325,0.270724895
0.001333333,0.269118834
0.001341667,0.253422134
0.00135,0.226314874
0.001358333,0.192755257
0.001366667,0.158829164
0.001375,0.129910305
0.001383333,0.111246233
0.001391667,0.105961432
0.0014,0.114873371
0.001408333,0.136451728
0.001416667,0.167275168
0.001425,0.201830813
0.001433333,0.234295423
0.001441667,0.259035005
0.00145,0.271827114
0.001458333,0.270105152
0.001466667,0.254261934
0.001475,0.227112788
0.001483333,0.193728221
0.001491667,0.159722376
0.0015,0.130749967
0.001508333,0.112143967
0.001516667,0.106671439
0.001525,0.115631263
0.001533333,0.137247533
0.001541667,0.168181213
0.00155,0.202691712
0.001558333,0.235401931
0.001566667,0.259963364
0.001575,0.272551531
0.001583333,0.270957548
0.001591667,0.255288736
0.0016,0.228048617
0.001608333,0.194508917
0.001616667,0.1606445
0.001625,0.131609983
0.001633333,0.112823079
0.001641667,0.107464895
0.00165,0.116469949
0.001658333,0.13811902
0.001666667,0.169002947
0.001675,0.203633841
0.001683333,0.236189492
0.001691667,0.260738257
0.0017,0.273452213
0.001708333,0.271732559
0.001716667,0.256055703
0.001725,0.228938498
0.001733333,0.195427773
0.001741667,0.161274377
0.00175,0.1322789
0.001758333,0.113607875
0.001766667,0.108117899
0.001775,0.117001535
0.001783333,0.13883447
0.001791667,0.169821396
0.0018,0.204353369
0.001808333,0.236957808
0.001816667,0.261632646
0.001825,0.274339422
0.001833333,0.272629176
0.001841667,0.256802602
0.00185,0.229819336
0.001858333,0.196209529
0.001866667,0.162030759
0.001875,0.132967306
0.001883333,0.114352537
0.001891667,0.108843926
0.0019,0.11784099
0.001908333,0.139570777
0.001916667,0.170483332
0.001925,0.205148608
0.001933333,0.237759627
0.001941667,0.262440445
0.00195,0.275141492
0.001958333,0.273511151
0.001966667,0.257590338
0.001975,0.23045218
0.001983333,0.197048376
0.001991667,0.162866023
0.002,0.133697573
0.002008333,0.114962632
0.002016667,0.109539997
0.002025,0.118508577
0.002033333,0.140263077
0.002041667,0.171206768
0.00205,0.205785956
0.002058333,0.23863688
0.002066667,0.263321027
0.002075,0.275800172
0.002083333,0.274036701
0.002091667,0.258327945
0.0021,0.231297955
0.002108333,0.197701269
0.002116667,0.163620333
0.002125,0.134464561
0.002133333,0.115672252
0.002141667,0.110207446
0.00215,0.11921567
0.002158333,0.141042559
0.002166667,0.172003833
0.002175,0.206546988
0.002183333,0.23932609
0.002191667,0.264083268
0.0022,0.276533282
0.002208333,0.27491003
0.002216667,0.259069915
0.002225,0.232205931
0.002233333,0.198618566
0.002241667,0.164453865
0.00225,0.135426909
0.002258333,0.116640074
0.002266667,0.111105606
0.002275,0.120031906
0.002283333,0.141907007
0.002291667,0.173018783
0.0023,0.207642177
0.002308333,0.240415719
0.002316667,0.265070137
0.002325,0.277623834
0.002333333,0.275883611
0.002341667,0.260016416
0.00235,0.232977197
0.002358333,0.199441427
0.002366667,0.165238866
0.002375,0.136031207
0.002383333,0.117148912
0.002391667,0.11174354
0.0024,0.120829266
0.002408333,0.142634459
0.002416667,0.173710251
0.002425,0.208421113
0.002433333,0.241139482
0.002441667,0.265706888
0.00245,0.278274647
0.002458333,0.276740946
0.002466667,0.260879315
0.002475,0.233780068
0.002483333,0.200090491
0.002491667,0.165785425
0.0025,0.136759467
0.002508333,0.117959989
0.002516667,0.112462147
0.002525,0.121407524
0.002533333,0.143292834
0.002541667,0.174305159
0.00255,0.209002602
0.002558333,0.242015777
0.002566667,0.266602658
0.002575,0.279023729
0.002583333,0.277337675
0.002591667,0.261600032
0.0026,0.2344869
0.002608333,0.200878663
0.002616667,0.166549082
0.002625,0.137390974
0.002633333,0.118637707
0.002641667,0.113150309
0.00265,0.122014992
0.002658333,0.143940783
0.002666667,0.175139392
0.002675,0.209712196
0.002683333,0.24256294
0.002691667,0.267245121
0.0027,0.2796639
0.002708333,0.278100983
0.002716667,0.262284233
0.002725,0.235230811
0.002733333,0.20155864
0.002741667,0.167262684
0.00275,0.137990257
0.002758333,0.119164745
0.002766667,0.113894538
0.002775,0.122729536
0.002783333,0.144543879
0.002791667,0.17569466
0.0028,0.210421338
0.002808333,0.243234159
0.002816667,0.268004085
0.002825,0.280364338
0.002833333,0.278658538
0.002841667,0.262965578
0.00285,0.235850908
0.002858333,0.202126774
0.002866667,0.16796688
0.002875,0.138834148
0.002883333,0.119820287
0.002891667,0.114263872
0.0029,0.123328659
0.002908333,0.145308054
0.002916667,0.176399413
0.002925,0.211022232
0.002933333,0.243986483
0.002941667,0.268731159
0.00295,0.280998071
0.002958333,0.279258007
0.002966667,0.263606656
0.002975,0.236580815
0.002983333,0.202819919
0.002991667,0.168490662
0.003,0.139227612
0.003008333,0.120358776
0.003016667,0.11501347
0.003025,0.124018773
0.003033333,0.14600776
0.003041667,0.177052357
0.00305,0.211766289
0.003058333,0.24456072
0.003066667,0.269281322
0.003075,0.281781416
0.003083333,0.280165852
0.003091667,0.264325778
0.0031,0.237147279
0.003108333,0.203398305
0.003116667,0.169080824
0.003125,0.139929921
0.003133333,0.121068185
0.003141667,0.115701048
0.00315,0.124589053
0.003158333,0.146449102
0.003166667,0.177703895
0.003175,0.212569262
0.003183333,0.245360282
0.003191667,0.270022785
0.0032,0.282529594
0.003208333,0.280868128
0.003216667,0.264997048
0.003225,0.237851933
0.003233333,0.20412548
0.003241667,0.169934049
0.00325,0.140709077
0.003258333,0.121684766
0.003266667,0.116116446
0.003275,0.125212514
0.003283333,0.147241613
0.003291667,0.178374897
0.0033,0.213109178
0.003308333,0.245923905
0.003316667,0.270590939
0.003325,0.283039269
0.003333333,0.281373259
0.003341667,0.265668082
0.00335,0.238484358
0.003358333,0.204656691
0.003366667,0.170308952
0.003375,0.14117104
0.003383333,0.122260087
0.003391667,0.11675882
0.0034,0.125679773
0.003408333,0.147737996
0.003416667,0.178932092
0.003425,0.213707661
0.003433333,0.246510535
0.003441667,0.271197997
0.00345,0.283820949
0.003458333,0.282121373
0.003466667,0.266272316
0.003475,0.239112539
0.003483333,0.205384114
0.003491667,0.171033925
0.0035,0.141773603
0.003508333,0.122952181
0.003516667,0.117394876
0.003525,0.126240967
0.003533333,0.148391416
0.003541667,0.179662636
0.00355,0.21441988
0.003558333,0.247223536
0.003566667,0.271939961
0.003575,0.284367802
0.003583333,0.28267567
0.003591667,0.266896012
0.0036,0.239771471
0.003608333,0.206160324
0.003616667,0.17168233
0.003625,0.142420581
0.003633333,0.123478819
0.003641667,0.118075912
0.00365,0.127000383
0.003658333,0.149153951
0.003666667,0.180279426
0.003675,0.21487981
0.003683333,0.247826584
0.003691667,0.272670743
0.0037,0.285037619
0.003708333,0.28326474
0.003716667,0.267672121
0.003725,0.240393522
0.003733333,0.206499232
0.003741667,0.172213888
0.00375,0.143074646
0.003758333,0.124146938
0.003766667,0.118706435
0.003775,0.127638458
0.003783333,0.149655511
0.003791667,0.180915545
0.0038,0.215687643
0.003808333,0.248556133
0.003816667,0.273471287
0.003825,0.285902237
0.003833333,0.283991522
0.003841667,0.268145017
0.00385,0.241100022
0.003858333,0.207243588
0.003866667,0.172942447
0.003875,0.143684563
0.003883333,0.124643438
0.003891667,0.11923193
0.0039,0.12826446
0.003908333,0.150348654
0.003916667,0.181538685
0.003925,0.216330057
0.003933333,0.249146059
0.003941667,0.27381744
0.00395,0.286483723
0.003958333,0.284662123
0.003966667,0.268809596
0.003975,0.241646651
0.003983333,0.207833208
0.003991667,0.173437451
0.004,0.144303059
0.004008333,0.125288772
0.004016667,0.119839055
0.004025,0.128979619
0.004033333,0.150978374
0.004041667,0.182010896
0.00405,0.216877202
0.004058333,0.249940642
0.004066667,0.274542156
0.004075,0.287084137
0.004083333,0.285449661
0.004091667,0.269478006
0.0041,0.242261109
0.004108333,0.20850614
0.004116667,0.174141046
0.004125,0.144905956
0.004133333,0.125856702
0.004141667,0.120360979
0.00415,0.129413807
0.004158333,0.151553756
0.004166667,0.182765542
0.004175,0.217620195
0.004183333,0.25042438
0.004191667,0.275124617
0.0042,0.28769033
0.004208333,0.28594979
0.004216667,0.270213051
0.004225,0.243023727
0.004233333,0.20913119
0.004241667,0.174602949
0.00425,0.145363931
0.004258333,0.126526646
0.004266667,0.121197673
0.004275,0.130160136
0.004283333,0.152191406
0.004291667,0.183495903
0.0043,0.218199704
0.004308333,0.251075111
0.004316667,0.275845985
0.004325,0.288485244
0.004333333,0.286681227
0.004341667,0.27071919
0.00435,0.243454293
0.004358333,0.209643343
0.004366667,0.175366641
0.004375,0.146081701
0.004383333,0.12713645
0.004391667,0.121779304
0.0044,0.130774613
0.004408333,0.152774055
0.004416667,0.184005823
0.004425,0.218953042
0.004433333,0.251850749
0.004441667,0.27653802
0.00445,0.289054348
0.004458333,0.287316039
0.004466667,0.271422391
0.004475,0.244255039
0.004483333,0.210381831
0.004491667,0.17590416
0.0045,0.146799648
0.004508333,0.127780228
0.004516667,0.122345905
0.004525,0.131444511
0.004533333,0.153550693
0.004541667,0.184728111
0.00455,0.219589489
0.004558333,0.252567857
0.004566667,0.27714371
0.004575,0.289748405
0.004583333,0.287945973
0.004591667,0.272064302
0.0046,0.244911317
0.004608333,0.211158953
0.004616667,0.176583897
0.004625,0.147259431
0.004633333,0.128424844
0.004641667,0.123023742
0.00465,0.132014373
0.004658333,0.154114869
0.004666667,0.185348362
0.004675,0.220204622
0.004683333,0.253162644
0.004691667,0.277960143
0.0047,0.290434009
0.004708333,0.288657644
0.004716667,0.2726455
0.004725,0.24547039
0.004733333,0.211745346
0.004741667,0.177316707
0.00475,0.148002536
0.004758333,0.128981757
0.004766667,0.123615334
0.004775,0.132615966
0.004783333,0.154752325
0.004791667,0.185994142
0.0048,0.220970962
0.004808333,0.253876399
0.004816667,0.278502694
0.004825,0.291012804
0.004833333,0.289301276
0.004841667,0.273461838
0.00485,0.246244074
0.004858333,0.212353043
0.004866667,0.177905374
0.004875,0.148645989
0.004883333,0.129692958
0.004891667,0.124169251
0.0049,0.133299967
0.004908333,0.15550436
0.004916667,0.186683139
0.004925,0.221379437
0.004933333,0.254367682
0.004941667,0.279250043
0.00495,0.291782229
0.004958333,0.289889644
0.004966667,0.273905421
0.004975,0.246793146
0.004983333,0.212837535
0.004991667,0.178451736
0.005,0.149392251
0.005008333,0.130310611
0.005016667,0.124788295
0.005025,0.133851507
0.005033333,0.156074855
0.005041667,0.187206989
0.00505,0.222102046
0.005058333,0.255028285
0.005066667,0.279792464
0.005075,0.292362157
0.005083333,0.290582055
0.005091667,0.274568103
0.0051,0.247306065
0.005108333,0.213532893
0.005116667,0.179110876
0.005125,0.149941888
0.005133333,0.130872454
0.005141667,0.125422975
0.00515,0.134518805
0.005158333,0.156608646
0.005166667,0.187869257
0.005175,0.222826857
0.005183333,0.255690385
0.005191667,0.280292004
0.0052,0.292950079
0.005208333,0.291272167
0.005216667,0.275196236
0.005225,0.247984428
0.005233333,0.214126622
0.005241667,0.179740021
0.00525,0.150443696
0.005258333,0.131410526
0.005266667,0.126095282
0.005275,0.135271179
0.005283333,0.157356343
0.005291667,0.188396585
0.0053,0.22340752
0.005308333,0.2564334
0.005316667,0.281010739
0.005325,0.293548293
0.005333333,0.291865954
0.005341667,0.275863649
0.00535,0.248643367
0.005358333,0.21479737
0.005366667,0.180268179
0.005375,0.151049045
0.005383333,0.132077366
0.005391667,0.126655228
0.0054,0.135696997
0.005408333,0.15785653
0.005416667,0.18915374
0.005425,0.224052356
0.005433333,0.257033003
0.005441667,0.281700835
0.00545,0.294312936
0.005458333,0.29257041
0.005466667,0.276503065
0.005475,0.249227048
0.005483333,0.215377215
0.005491667,0.180830255
0.0055,0.151417898
0.005508333,0.132599751
0.005516667,0.127266508
0.005525,0.136276096
0.005533333,0.158375053
0.005541667,0.189624405
0.00555,0.224510979
0.005558333,0.257454117
0.005566667,0.282303455
0.005575,0.294882909
0.005583333,0.293029157
0.005591667,0.277022984
0.0056,0.249706918
0.005608333,0.215959258
0.005616667,0.181530871
0.005625,0.15224014
0.005633333,0.133158872
0.005641667,0.12785765
0.00565,0.136979708
0.005658333,0.159019989
0.005666667,0.190260569
0.005675,0.225178919
0.005683333,0.258160398
0.005691667,0.282883708
0.0057,0.295423522
0.005708333,0.293488655
0.005716667,0.277624685
0.005725,0.250471468
0.005733333,0.216506239
0.005741667,0.182076253
0.00575,0.152845009
0.005758333,0.13375919
0.005766667,0.128292015
0.005775,0.137596183
0.005783333,0.159709424
0.005791667,0.190918461
0.0058,0.22584303
0.005808333,0.258667947
0.005816667,0.283458587
0.005825,0.296075593
0.005833333,0.294284582
0.005841667,0.278142078
0.00585,0.251023227
0.005858333,0.217139764
0.005866667,0.182584478
0.005875,0.15348146
0.005883333,0.13455748
0.005891667,0.129029085
0.0059,0.138150123
0.005908333,0.160328729
0.005916667,0.191622252
0.005925,0.226580125
0.005933333,0.259434942
0.005941667,0.284069272
0.00595,0.29673534
0.005958333,0.29494221
0.005966667,0.278850972
0.005975,0.25157077
0.005983333,0.217813524
0.005991667,0.183348373
0.006,0.15403495
0.006008333,0.134947425
0.006016667,0.129508655
0.006025,0.138825353
0.006033333,0.160987168
0.006041667,0.192084465
0.00605,0.22717509
0.006058333,0.26009749
0.006066667,0.284674029
0.006075,0.297178811
0.006083333,0.295627523
0.006091667,0.279630412
0.0061,0.252235452
0.006108333,0.218272013
0.006116667,0.183836589
0.006125,0.154624435
0.006133333,0.135649561
0.006141667,0.130245463
0.00615,0.139355803
0.006158333,0.161571415
0.006166667,0.192805118
0.006175,0.2277537
0.006183333,0.260661174
0.006191667,0.285443384
0.0062,0.298006504
0.006208333,0.29615928
0.006216667,0.280105123
0.006225,0.252831161
0.006233333,0.219000221
0.006241667,0.184519135
0.00625,0.155215626
0.006258333,0.136365473
0.006266667,0.130864775
0.006275,0.139977419
0.006283333,0.162089518
0.006291667,0.193457755
0.0063,0.228417012
0.006308333,0.26118888
0.006316667,0.285900401
0.006325,0.298579779
0.006333333,0.296791623
0.006341667,0.280607364
0.00635,0.2534389
0.006358333,0.219623181
0.006366667,0.185093588
0.006375,0.155714043
0.006383333,0.136826021
0.006391667,0.131502893
0.0064,0.140643772
0.006408333,0.162746306
0.006416667,0.193927099
0.006425,0.229029123
0.006433333,0.261887715
0.006441667,0.286558854
0.00645,0.299172872
0.006458333,0.297348565
0.006466667,0.281328075
0.006475,0.254108597
0.006483333,0.220268495
0.006491667,0.185692532
0.0065,0.156422269
0.006508333,0.137519083
0.006516667,0.132022458
0.006525,0.141306378
0.006533333,0.163450689
0.006541667,0.19465771
0.00655,0.229597182
0.006558333,0.262303645
0.006566667,0.286918546
0.006575,0.29944621
0.006583333,0.297634565
0.006591667,0.281601157
0.0066,0.254397189
0.006608333,0.220489539
0.006616667,0.185900765
0.006625,0.156595048
0.006633333,0.137799263
0.006641667,0.132351131
0.00665,0.14155597
0.006658333,0.163908312
0.006666667,0.1949939
0.006675,0.229897897
0.006683333,0.262787422
0.006691667,0.287562017
0.0067,0.300221095
0.006708333,0.298379072
0.006716667,0.282262907
0.006725,0.254850138
0.006733333,0.221150398
0.006741667,0.186608812
0.00675,0.157293867
0.006758333,0.138326731
0.006766667,0.133087816
0.006775,0.142216743
0.006783333,0.164317032
0.006791667,0.195623001
0.0068,0.230634725
0.006808333,0.263496535
0.006816667,0.288196862
0.006825,0.300714446
0.006833333,0.29894094
0.006841667,0.282926011
0.00685,0.255517248
0.006858333,0.221627244
0.006866667,0.187229775
0.006875,0.157905507
0.006883333,0.138926772
0.006891667,0.133489632
0.0069,0.142789225
0.006908333,0.164998749
0.006916667,0.196179205
0.006925,0.231153363
0.006933333,0.263973692
0.006941667,0.288748283
0.00695,0.301371918
0.006958333,0.299588173
0.006966667,0.283606126
0.006975,0.256179014
0.006983333,0.222248429
0.006991667,0.187749531
0.007,0.158522381
0.007008333,0.139620595
0.007016667,0.134242935
0.007025,0.143335024
0.007033333,0.165571746
0.007041667,0.196827598
0.00705,0.231862628
